(kg) (lb) 201 202 203 204 205 206 207 208 209 210
0.5 1.7 46.58 58.12 67.74 60.47 54.50 70.06 63.13 73.88 74.50 75.01
1.0 2.2 49.36 63.81 74.73 65.81 58.98 77.46 72.69 82.28 82.28 82.64
1.5 3.3 52.77 69.78 81.62 71.26 63.51 84.80 80.95 90.66 89.97 90.19
2.0 4.4 57.78 77.74 91.79 79.00 70.11 96.17 90.42 103.05 102.14 102.08
2.5 5.5 63.07 87.02 104.69 86.97 77.62 110.04 99.13 118.07 116.82 116.87
3.0 6.6 69.38 96.74 117.78 99.18 86.51 125.17 112.90 133.80 132.93 134.11
3.5 7.7 76.38 108.12 131.49 110.04 96.09 141.21 121.59 146.74 150.02 150.54
4.0 8.8 83.36 119.67 146.10 122.78 105.92 158.26 131.39 164.18 168.06 168.34
4.5 9.9 91.16 132.52 160.37 137.40 116.80 174.77 144.33 180.91 185.63 185.23
5.0 11.0 99.71 148.04 178.81 152.37 129.88 195.57 158.21 201.15 207.63 204.62
5.5 12.1 106.99 151.39 185.47 157.81 136.50 206.04 169.82 219.13 215.53 212.24
6.0 13.2 114.20 157.76 192.06 163.29 143.26 216.56 177.89 231.18 223.45 219.69
6.5 14.3 121.36 164.88 200.36 170.45 150.65 226.00 186.66 242.39 233.28 230.39
7.0 15.4 128.70 172.04 208.55 177.61 158.21 235.46 195.46 253.64 243.00 241.14
7.5 16.5 135.97 180.73 218.67 185.53 166.65 246.15 203.54 264.23 254.04 251.26
8.0 17.6 143.26 189.43 228.91 193.47 174.97 256.84 212.81 274.81 265.14 261.50
8.5 18.7 150.54 198.65 239.88 201.90 183.60 268.14 221.70 286.98 276.86 272.80
9.0 19.8 157.70 207.88 251.04 210.24 192.25 279.57 230.50 299.09 288.57 284.07
9.5 20.9 164.99 217.37 262.23 220.10 200.94 291.24 238.53 312.16 299.93 295.62
10.0 22.0 172.32 224.36 273.43 229.99 209.74 302.95 248.82 325.25 311.43 307.23
10.5 23.1 179.78 229.26 283.91 238.53 218.59 314.61 259.05 325.81 324.22 319.96
11.0 24.2 187.07 236.99 294.26 247.12 227.47 326.38 269.12 335.89 336.92 332.64
11.5 25.3 194.22 244.71 305.91 256.60 236.16 338.50 279.24 348.63 349.53 344.76
12.0 26.4 201.44 251.31 317.51 266.04 244.85 350.72 289.35 361.43 362.04 356.87
12.5 27.5 208.76 260.23 329.22 275.59 253.81 363.02 299.77 374.21 374.77 369.78
13.0 28.6 216.10 269.17 341.01 285.26 262.69 375.42 310.28 387.12 387.52 382.57
13.5 29.7 223.39 278.16 352.61 294.78 271.38 387.63 320.77 400.20 400.14 395.42
14.0 30.8 230.56 287.03 364.20 304.20 280.13 399.87 331.11 413.46 412.83 408.11
14.5 31.9 237.82 290.73 373.75 313.65 288.47 412.15 341.73 426.37 425.40 420.90
15.0 33.0 245.12 294.31 383.19 323.09 296.91 424.38 352.16 439.27 438.02 433.57
15.5 34.1 252.50 297.55 389.74 328.72 303.72 433.64 359.15 449.51 447.70 444.00
16.0 35.2 259.86 304.03 396.18 337.48 310.67 443.04 366.19 459.74 457.35 454.40
16.5 36.3 267.06 311.99 406.16 346.76 318.86 454.85 376.26 472.03 469.55 466.73
17.0 37.4 274.14 319.96 416.23 356.06 327.19 466.68 386.34 484.32 481.81 479.08
17.5 38.5 280.32 327.87 426.76 365.51 335.06 478.79 396.33 496.77 494.26 491.14
18.0 39.6 286.47 335.89 437.17 375.01 342.82 490.91 406.45 509.29 506.72 503.20
18.5 40.7 293.51 343.74 446.78 384.06 351.02 502.56 416.81 521.96 518.78 516.68
19.0 41.8 300.62 351.58 456.44 393.15 359.34 514.23 427.16 534.71 530.83 530.16
19.5 42.9 308.07 358.91 464.24 402.20 367.34 525.72 437.39 547.16 542.67 542.72
20.0 44.0 315.47 361.58 472.09 411.24 375.28 537.08 447.80 559.67 554.55 555.41
20.5 45.1 322.41 363.69 475.04 418.23 381.23 545.23 454.23 568.56 562.92 565.02
21.0 46.2 329.41 368.97 478.00 425.11 387.10 553.41 460.90 577.51 571.33 574.74
21.5 47.3 336.57 376.09 486.75 434.21 394.86 564.79 470.88 589.52 583.14 586.29
22.0 48.4 343.55 383.31 495.39 443.55 402.75 576.23 481.02 601.59 594.75 597.88
22.5 49.5 350.84 390.35 504.09 452.69 410.68 587.88 491.20 614.03 606.76 609.95
23.0 50.6 358.12 397.59 512.88 461.85 418.52 599.55 501.42 626.56 618.86 622.00
23.5 51.7 365.00 404.64 521.17 470.68 426.27 610.52 510.99 638.27 630.26 633.20
24.0 52.8 371.83 411.80 529.42 479.49 433.97 621.67 520.55 649.86 641.73 644.29
24.5 53.9 379.38 420.05 540.61 489.04 442.72 633.77 531.92 663.30 654.25 656.56
25.0 55.0 386.90 428.24 551.93 498.47 451.36 645.95 543.13 676.66 666.81 668.75
25.5 56.1 394.18 434.09 556.54 504.78 457.54 653.69 551.52 685.37 674.83 680.81
26.0 57.2 401.35 440.01 561.21 510.94 463.61 661.47 559.95 694.11 682.81 692.87
26.5 58.3 408.56 447.65 570.93 519.99 471.76 672.68 569.69 705.88 694.41 704.80
27.0 59.4 415.78 455.26 580.66 529.01 479.81 683.94 579.52 717.54 706.00 716.74
27.5 60.5 423.00 462.59 589.63 538.17 487.90 695.43 589.32 729.89 717.88 728.46
28.0 61.6 430.17 469.92 598.40 547.32 495.90 706.96 599.14 742.17 729.77 740.23
28.5 62.7 437.12 476.77 606.31 556.14 503.35 718.11 609.08 753.89 741.26 751.78
29.0 63.8 444.00 483.46 614.16 565.02 510.91 729.25 618.86 765.61 752.81 763.14
29.5 64.9 450.88 490.34 622.39 573.82 518.30 739.89 628.83 777.67 763.78 774.81
30.0 66.0 457.82 497.13 630.71 582.64 525.81 750.55 638.72 789.65 774.75 786.36
30.1 66.1 7.10 6.89 7.88 8.42 7.45 10.48 9.57 11.30 10.79 11.76