(kg) (lb) E1 E2 E3 E4 E5 F1 F2 F3 F4 F5 F6 G1 G2 G3 G4 H1 H2 H3 H4 H5 J1 J2
0.75 1.7 13.92 13.65 13.71 13.79 13.87 14.63 14.77 16.42 16.60 16.92 17.08 15.81 15.66 15.69 15.66 16.90 16.72 18.97 14.54 19.01 14.84 17.41
1.0 2.2 15.38 15.15 15.23 15.30 15.38 15.78 15.94 19.19 19.37 19.77 19.96 17.00 16.85 16.89 16.85 18.24 18.07 21.40 15.69 21.34 16.44 18.26
1.5 3.3 16.32 16.10 16.16 16.24 16.32 17.19 17.36 19.91 20.09 20.52 20.71 18.46 18.28 18.32 18.28 19.87 19.67 23.49 17.02 23.44 17.83 20.95
2.0 4.4 17.11 16.96 17.04 17.11 17.19 18.04 18.22 20.82 21.02 21.44 21.65 19.44 19.24 19.31 19.24 20.94 20.74 24.64 17.93 25.17 20.76 24.39
2.5 5.5 17.91 17.73 17.82 17.91 17.99 18.61 18.80 22.01 22.21 22.67 22.89 20.01 19.83 19.87 19.82 21.81 21.60 25.83 18.47 26.39 23.77 27.94
3.0 6.6 18.54 18.35 18.47 18.54 18.62 19.32 19.48 22.74 22.96 23.42 23.64 20.89 20.69 20.74 20.69 22.71 22.49 26.88 19.28 27.50 28.71 30.65
3.5 7.7 19.18 19.02 19.09 19.18 19.28 19.99 20.17 23.47 23.70 24.15 24.39 21.78 21.56 21.61 21.56 23.62 23.38 27.95 20.09 28.59 31.01 33.35
4.0 8.8 19.82 19.64 19.73 19.82 19.92 20.66 20.86 24.20 24.43 24.90 25.14 22.65 22.42 22.47 22.42 24.52 24.28 29.01 20.89 29.68 33.32 36.04
4.5 9.9 20.45 20.27 20.35 20.45 20.56 21.34 21.54 24.93 25.17 25.65 25.88 23.51 23.27 23.33 23.27 25.42 25.17 30.04 21.69 30.77 35.61 38.74
5.0 11.0 21.10 20.88 20.99 21.10 21.18 22.01 22.21 25.67 25.91 26.36 26.62 24.36 24.13 24.19 24.13 26.31 26.05 31.09 22.47 31.86 37.89 41.43
5.5 12.1 21.71 21.52 21.62 21.71 21.82 22.66 22.87 26.35 26.60 27.10 27.34 25.17 24.93 25.00 24.93 27.19 26.92 32.07 23.22 32.89 40.86 47.01
6.0 13.2 22.35 22.13 22.23 22.35 22.45 23.30 23.52 27.04 27.30 27.80 28.07 25.98 25.74 25.79 25.74 28.06 27.78 33.06 23.97 33.90 43.09 49.70
6.5 14.3 22.97 22.75 22.86 22.97 23.08 23.93 24.16 27.74 28.01 28.51 28.79 26.80 26.54 26.59 26.54 28.92 28.64 34.04 24.72 34.94 45.30 52.40
7.0 15.4 23.59 23.37 23.47 23.59 23.71 24.57 24.81 28.42 28.71 29.24 29.52 27.59 27.32 27.39 27.32 29.80 29.51 35.02 25.46 35.95 47.51 55.09
7.5 16.5 24.21 23.98 24.10 24.21 24.33 25.20 25.45 29.11 29.39 29.93 30.21 28.38 28.12 28.18 28.10 30.65 30.37 36.00 26.20 36.98 49.70 57.77
8.0 17.6 24.83 24.59 24.71 24.83 24.94 25.82 26.08 29.80 30.09 30.64 30.93 29.18 28.90 28.98 28.90 31.51 31.20 36.96 26.93 37.97 51.89 60.44
8.5 18.7 25.44 25.19 25.31 25.44 25.55 26.46 26.71 30.46 30.77 31.34 31.64 29.96 29.67 29.75 29.68 32.37 32.06 37.92 27.65 38.97 54.09 63.10
9.0 19.8 26.04 25.79 25.94 26.04 26.16 27.10 27.34 31.14 31.45 32.04 32.35 30.75 30.46 30.53 30.46 33.22 32.90 38.88 28.37 39.97 56.27 65.75
9.5 20.9 26.66 26.40 26.54 26.66 26.78 27.72 27.99 31.82 32.12 32.72 33.03 31.54 31.23 31.31 31.23 34.06 33.74 39.85 29.10 40.96 58.45 68.40
10.0 22.0 27.25 26.99 27.13 27.25 27.39 28.33 28.61 32.48 32.79 33.42 33.75 32.32 32.01 32.08 32.01 34.91 34.56 40.78 29.82 41.95 60.62 71.02
10.5 23.1 27.85 27.58 27.73 27.85 27.99 28.95 29.24 33.15 33.48 34.11 34.43 33.09 32.77 32.86 32.77 35.73 35.40 41.74 30.53 42.94 62.78 73.66
11.0 24.2 28.43 28.16 28.31 28.43 28.58 29.57 29.85 33.81 34.14 34.79 35.12 33.86 33.54 33.62 33.53 36.57 36.22 42.69 31.25 43.93 64.93 76.27
11.5 25.3 29.02 28.75 28.89 29.02 29.16 30.17 30.46 34.47 34.80 35.48 35.82 34.64 34.30 34.39 34.30 37.40 37.05 43.61 31.95 44.89 67.08 78.89
12.0 26.4 29.60 29.32 29.46 29.60 29.74 30.78 31.08 35.12 35.48 36.16 36.50 35.40 35.06 35.14 35.06 38.24 37.87 44.56 32.66 45.86 69.22 81.50
12.5 27.5 30.18 29.89 30.04 30.18 30.32 31.38 31.68 35.79 36.13 36.82 37.17 36.16 35.80 35.90 35.81 39.07 38.68 45.48 33.35 46.84 71.36 84.08
13.0 28.6 30.75 30.46 30.62 30.75 30.91 32.00 32.30 36.45 36.79 37.50 37.87 36.91 36.55 36.65 36.56 39.88 39.49 46.42 34.06 47.81 73.47 86.66
13.5 29.7 31.34 31.04 31.19 31.34 31.48 32.60 32.91 37.09 37.43 38.17 38.54 37.67 37.31 37.40 37.32 40.70 40.31 47.34 34.75 48.75 75.59 89.25
14.0 30.8 31.91 31.61 31.76 31.91 32.07 33.19 33.51 37.73 38.10 38.83 39.20 38.42 38.05 38.16 38.04 41.50 41.10 48.25 35.45 49.72 77.70 91.80
14.5 31.9 32.47 32.17 32.33 32.47 32.64 33.78 34.11 38.38 38.76 39.49 39.88 39.17 38.80 38.88 38.80 42.31 41.91 49.17 36.15 50.66 79.80 94.38
15.0 33.0 33.03 32.72 33.20 33.03 33.20 34.38 34.70 39.02 39.39 40.16 40.55 39.90 39.54 39.62 39.54 43.13 42.70 50.08 36.82 51.61 81.91 96.92
15.5 34.1 33.60 33.28 33.76 33.60 33.77 34.96 35.29 39.65 40.04 40.81 41.20 40.66 40.26 40.37 40.26 43.93 43.49 50.97 37.51 52.56 83.99 99.46
16.0 35.2 34.97 34.63 35.14 34.97 35.14 36.39 36.73 41.23 41.63 42.45 42.86 42.36 41.96 42.06 41.96 45.78 45.32 53.10 39.08 54.75 88.10 104.41
16.5 36.3 35.54 35.21 35.71 35.54 35.71 36.99 37.34 41.87 42.28 43.12 43.52 43.13 42.69 42.81 42.71 46.59 46.14 54.01 39.78 55.70 90.23 106.99
17.0 37.4 36.11 35.78 36.28 36.11 36.29 37.58 37.93 42.51 42.92 43.77 44.19 43.86 43.44 43.55 43.46 47.40 46.93 54.91 40.47 56.66 92.35 109.58
17.5 38.5 36.68 36.34 36.84 36.68 36.84 38.18 38.53 43.16 43.56 44.43 44.86 44.61 44.18 44.28 44.18 48.20 47.72 55.84 41.16 57.60 94.46 112.13
18.0 39.6 37.24 36.87 37.41 37.24 37.41 38.76 39.13 43.80 44.21 45.08 45.53 45.35 44.93 45.03 44.93 49.00 48.53 56.73 41.84 58.55 96.56 114.71
18.5 40.7 37.80 37.43 37.99 37.80 37.98 39.35 39.73 44.43 44.84 45.74 46.17 46.09 45.63 45.76 45.64 49.80 49.31 57.64 42.51 59.48 98.67 117.25
19.0 41.8 38.36 37.99 38.54 38.36 38.54 39.93 40.31 45.05 45.48 46.40 46.83 46.82 46.37 46.48 46.37 50.59 50.10 58.55 43.19 60.40 100.76 119.80
19.5 42.9 38.91 38.54 39.09 38.91 39.09 40.50 40.90 45.67 46.12 47.04 47.48 47.54 47.10 47.19 47.10 51.38 50.88 59.44 43.88 61.33 102.84 122.32
20.0 44.0 39.46 39.09 39.65 39.46 39.66 41.09 41.47 46.30 46.75 47.68 48.13 48.28 47.81 47.93 47.80 52.15 51.65 60.32 44.55 62.25 104.92 124.83
20.5 45.1 39.90 39.53 40.10 39.90 40.09 41.54 41.93 46.84 47.31 48.23 48.69 48.89 48.41 48.53 48.41 52.81 52.32 61.11 45.10 63.06 108.57 128.42
21.0 46.2 40.34 39.97 40.53 40.34 40.55 41.99 42.39 47.38 47.83 48.77 49.24 49.49 49.01 49.15 49.01 53.47 52.96 61.89 45.65 63.86 112.21 131.99
21.5 47.3 40.79 40.40 40.99 40.79 40.99 42.45 42.86 47.93 48.37 49.31 49.78 50.09 49.59 49.72 49.59 54.13 53.60 62.67 46.21 64.65 115.86 135.54
22.0 48.4 41.23 40.83 41.43 41.23 41.42 42.90 43.31 48.44 48.91 49.85 50.33 50.69 50.21 50.32 50.20 54.78 54.23 63.45 46.77 65.45 119.47 139.06
22.5 49.5 42.07 41.66 42.06 42.07 42.27 43.77 44.20 49.43 49.92 50.88 51.36 51.78 51.28 51.63 51.27 55.93 55.39 64.85 47.78 66.87 123.08 143.30
23.0 50.6 42.51 42.10 42.50 42.51 42.71 44.22 44.64 49.98 50.45 51.41 51.91 52.37 51.87 52.24 51.86 56.58 56.03 65.61 48.31 67.67 126.67 146.84
23.5 51.7 42.95 42.53 42.93 42.95 43.15 44.68 45.10 50.50 50.97 51.95 52.44 52.95 52.45 52.83 52.45 57.22 56.67 66.39 48.86 68.45 130.26 150.35
24.0 52.8 43.37 42.97 43.37 43.37 43.58 45.12 45.55 51.04 51.52 52.47 52.98 53.54 53.06 53.42 53.04 57.86 57.31 67.16 49.41 69.23 133.84 153.86
24.5 53.9 43.81 43.38 43.80 43.81 44.01 45.56 46.00 51.55 52.04 53.00 53.51 54.15 53.64 54.00 53.62 58.50 57.94 67.92 49.95 70.01 137.39 157.35
25.0 55.0 44.23 43.81 44.23 44.23 44.45 46.00 46.44 52.06 52.58 53.53 54.06 54.73 54.19 54.58 54.19 59.14 58.57 68.69 50.50 70.80 140.92 160.82
25.5 56.1 44.64 44.23 44.67 44.64 44.87 46.44 46.90 52.59 53.09 54.06 54.58 55.31 54.78 55.18 54.78 59.77 59.20 69.45 51.04 71.57 144.46 164.30
26.0 57.2 45.09 44.64 45.08 45.09 45.29 46.89 47.32 53.09 53.60 54.58 55.09 55.89 55.35 55.75 55.35 60.39 59.81 70.20 51.57 72.33 147.99 167.76
26.5 58.3 45.50 45.08 45.50 45.50 45.73 47.31 47.78 53.60 54.13 55.09 55.64 56.46 55.91 56.33 55.92 61.01 60.41 70.95 52.09 73.07 151.51 171.20
27.0 59.4 45.92 45.48 45.92 45.92 46.13 47.76 48.20 54.12 54.64 55.63 56.16 57.03 56.49 56.89 56.50 61.63 61.03 71.69 52.61 73.85 154.99 174.65
27.5 60.5 46.34 45.89 46.33 46.34 46.57 48.18 48.64 54.63 55.14 56.14 56.67 57.60 57.07 57.46 57.07 62.25 61.64 72.43 53.15 74.59 158.48 178.07
28.0 61.6 46.75 46.31 46.76 46.75 46.98 48.60 49.07 55.13 55.65 56.63 57.19 58.17 57.61 58.03 57.61 62.86 62.25 73.17 53.68 75.36 161.97 181.48
28.5 62.7 47.17 46.70 47.17 47.17 47.38 49.03 49.49 55.63 56.16 57.15 57.71 58.74 58.17 58.60 58.16 63.46 62.86 73.91 54.19 76.09 165.42 184.88
29.0 63.8 47.57 47.11 47.58 47.57 47.81 49.44 49.93 56.12 56.66 57.65 58.21 59.30 58.73 59.13 58.72 64.07 63.44 74.62 54.71 76.85 168.87 188.27
29.5 64.9 47.97 47.52 47.99 47.97 48.20 49.87 50.35 56.60 57.15 58.15 58.71 59.86 59.28 59.69 59.28 64.67 64.05 75.37 55.22 77.58 172.30 191.64
30.0 66.0 48.39 47.93 48.39 48.39 48.61 50.29 50.77 57.11 57.65 58.65 59.23 60.39 59.82 60.24 59.82 65.28 64.64 76.08 55.73 78.32 175.72 195.00