(kg) (lb) 401 402 403 404 405 406 407 408 409 410
0.5 1.7 37.74 45.42 52.15 48.40 50.29 55.05 52.75 57.54 55.69 53.96
1.0 2.2 41.62 48.01 55.32 51.41 53.17 57.13 54.18 60.49 56.38 57.20
1.5 3.3 45.49 50.64 58.48 54.47 56.08 62.00 58.33 64.16 59.66 60.49
2.0 4.4 48.26 53.69 62.45 58.12 59.78 66.05 62.59 68.27 63.51 64.48
2.5 5.5 52.52 58.22 67.80 63.14 64.85 71.78 67.90 74.09 69.04 70.05
3.0 6.6 57.51 63.92 74.10 69.28 70.72 78.68 74.36 81.81 75.44 76.77
3.5 7.7 64.54 71.50 83.23 77.66 79.01 88.29 83.12 90.94 84.33 86.18
4.0 8.8 73.11 80.92 94.07 87.96 89.46 99.89 93.97 102.88 95.39 97.38
4.5 9.9 81.35 90.59 105.22 98.62 100.16 111.90 105.17 115.20 106.78 109.02
5.0 11.0 88.73 98.48 115.20 107.48 109.17 122.61 114.59 125.66 116.62 119.51
5.5 12.1 91.72 101.33 118.78 111.06 112.34 125.95 117.43 129.34 121.35 122.87
6.0 13.2 94.67 104.19 122.38 114.66 115.50 129.26 120.26 133.05 126.02 126.41
6.5 14.3 98.59 108.17 127.35 118.99 120.01 134.27 124.64 137.81 130.65 131.45
7.0 15.4 102.50 112.12 132.28 123.31 124.52 139.26 129.06 142.48 135.25 136.81
7.5 16.5 105.45 115.63 136.48 127.55 128.60 144.99 133.13 148.11 140.55 142.37
8.0 17.6 108.40 119.15 140.66 131.78 132.66 150.72 137.21 153.77 145.83 148.59
8.5 18.7 110.77 121.81 143.64 134.88 135.67 154.70 140.51 158.13 149.63 152.33
9.0 19.8 113.15 124.45 146.63 137.99 138.63 158.67 143.77 162.52 153.43 156.79
9.5 20.9 116.29 127.93 150.73 141.70 142.65 163.54 148.28 165.95 157.29 159.97
10.0 22.0 119.45 131.36 154.83 145.37 146.65 168.40 152.80 169.42 161.15 163.99
10.5 23.1 124.48 135.16 159.08 149.34 150.77 172.22 156.35 173.35 165.44 167.72
11.0 24.2 129.55 138.92 163.29 153.28 154.88 176.04 159.90 177.26 169.79 171.41
11.5 25.3 132.87 142.43 167.55 157.11 158.85 180.45 163.78 181.66 173.98 175.78
12.0 26.4 136.17 145.89 171.80 160.94 162.82 184.84 167.68 186.06 178.19 180.09
12.5 27.5 139.47 149.38 176.13 164.89 166.88 189.32 171.86 190.63 182.37 184.56
13.0 28.6 142.83 152.89 180.51 168.83 170.94 193.80 176.04 195.19 186.53 188.96
13.5 29.7 146.09 156.28 184.68 172.62 174.83 198.22 180.14 199.40 190.69 193.22
14.0 30.8 149.34 159.67 188.83 176.42 178.68 202.62 184.21 203.60 194.85 197.45
14.5 31.9 152.65 163.24 193.10 180.27 182.69 207.23 188.31 207.63 199.21 201.68
15.0 33.0 155.95 166.80 197.32 184.15 186.71 211.83 192.40 211.66 203.53 205.91
15.5 34.1 158.87 169.82 200.81 187.36 190.09 215.46 195.91 215.57 207.39 209.42
16.0 35.2 161.76 172.80 204.29 190.60 193.44 219.07 199.43 219.44 211.28 212.93
16.5 36.3 164.95 176.22 208.41 194.32 197.36 223.36 203.41 223.75 215.39 217.11
17.0 37.4 168.10 179.59 212.50 198.04 201.25 227.64 207.39 228.04 219.47 221.28
17.5 38.5 171.55 183.07 216.08 201.97 205.19 232.18 211.31 232.46 223.68 225.72
18.0 39.6 174.99 186.52 219.68 205.91 209.15 236.70 215.26 236.87 227.85 230.10
18.5 40.7 178.23 190.06 224.49 209.66 213.11 241.00 219.14 241.53 232.24 234.25
19.0 41.8 181.48 193.63 229.32 213.44 217.08 245.28 223.00 246.15 236.65 238.37
19.5 42.9 184.75 197.00 232.75 217.19 220.97 249.50 227.15 249.50 240.55 242.47
20.0 44.0 188.01 200.40 236.15 220.99 224.83 253.73 231.32 252.87 244.48 246.57
20.5 45.1 190.69 203.32 240.16 223.93 228.00 257.11 234.05 256.31 248.19 250.46
21.0 46.2 193.35 206.20 244.17 226.88 231.17 260.51 236.79 259.71 251.88 254.37
21.5 47.3 196.70 209.62 248.40 230.74 235.56 264.77 241.01 264.11 256.08 258.57
22.0 48.4 200.04 213.03 252.63 234.64 239.91 268.98 245.21 268.49 260.28 262.79
22.5 49.5 203.35 216.46 256.13 238.51 243.96 273.38 249.10 273.08 264.59 267.12
23.0 50.6 206.65 219.90 259.62 242.34 247.96 277.80 253.01 277.62 268.87 271.44
23.5 51.7 209.83 223.33 263.58 245.98 251.83 281.91 256.88 281.78 272.81 275.48
24.0 52.8 212.99 226.74 267.55 249.61 255.69 285.97 260.74 285.96 276.76 279.46
24.5 53.9 215.99 230.17 271.78 253.49 259.81 290.43 265.26 290.63 281.05 283.76
25.0 55.0 218.93 233.65 276.03 257.37 263.89 294.93 269.78 295.32 285.39 288.06
25.5 56.1 220.83 236.44 279.32 260.27 266.85 298.12 272.95 298.77 288.66 291.45
26.0 57.2 222.71 239.23 282.58 263.20 269.75 301.30 276.12 302.24 291.94 294.87
26.5 58.3 225.88 242.62 286.76 266.91 273.57 305.49 280.03 306.39 296.04 299.17
27.0 59.4 229.04 246.00 290.93 270.66 277.36 309.65 283.92 310.50 300.15 303.48
27.5 60.5 232.25 249.45 294.91 274.42 281.28 313.92 287.91 314.88 304.46 307.54
28.0 61.6 235.43 252.89 298.90 278.17 285.24 318.17 291.88 319.24 308.81 311.60
28.5 62.7 238.69 256.32 302.41 281.98 289.21 322.47 296.04 323.62 312.89 315.88
29.0 63.8 241.94 259.73 305.94 285.79 293.20 326.76 300.20 328.00 316.98 320.12
29.5 64.9 245.03 263.10 309.48 289.47 297.28 330.88 303.88 332.43 320.79 324.38
30.0 66.0 248.10 266.45 313.02 293.12 301.38 334.94 307.54 336.84 324.56 328.63
30.1 66.1 2.91 3.28 3.83 3.57 3.75 4.01 3.78 4.15 3.93 4.02
