(kg) (lb) 201 202 203 204 205 206 207 208 209 210
0.5 1.7 42.60 53.52 62.81 57.13 51.16 64.58 57.98 67.46 68.60 69.03
1.0 2.2 45.00 58.75 69.33 62.32 54.27 71.60 66.98 75.09 75.69 75.99
1.5 3.3 47.38 64.02 75.87 67.53 58.36 78.61 74.81 82.72 82.80 82.98
2.0 4.4 52.00 70.97 85.36 74.73 64.52 89.12 83.07 94.14 93.96 93.93
2.5 5.5 56.87 79.24 97.31 82.35 71.41 101.84 91.17 107.69 107.41 107.53
3.0 6.6 62.61 89.04 109.54 94.01 79.63 115.26 104.26 122.16 122.29 123.42
3.5 7.7 68.96 99.46 122.25 104.19 88.49 129.97 112.15 133.65 138.01 138.45
4.0 8.8 75.39 110.17 135.78 116.33 97.44 145.61 120.85 149.45 154.58 154.84
4.5 9.9 82.50 121.94 149.12 130.27 107.46 160.81 132.63 164.81 170.77 170.43
5.0 11.0 90.86 136.23 163.78 144.29 119.40 179.89 145.25 181.84 182.86 180.18
5.5 12.1 97.45 142.14 173.68 147.26 125.59 189.56 156.27 195.31 190.10 187.66
6.0 13.2 104.02 148.07 181.46 150.17 131.77 199.23 163.75 204.24 197.39 195.09
6.5 14.3 110.57 154.76 188.01 156.75 138.65 207.93 171.97 215.03 206.03 204.55
7.0 15.4 117.18 161.45 195.76 163.33 145.52 216.60 180.17 225.82 214.69 213.98
7.5 16.5 123.82 169.64 205.23 170.65 153.23 226.43 187.47 235.13 224.44 223.05
8.0 17.6 130.47 177.85 214.72 177.97 160.93 236.25 195.97 244.47 234.15 232.11
8.5 18.7 137.03 186.52 225.17 185.72 168.93 246.71 204.10 255.23 244.48 242.21
9.0 19.8 143.64 195.21 235.59 193.47 176.92 257.17 212.26 265.99 254.83 252.25
9.5 20.9 150.29 203.99 246.15 202.52 185.01 265.94 219.38 273.74 262.30 259.12
10.0 22.0 156.93 210.43 256.67 211.57 193.04 274.73 228.92 281.47 269.82 266.04
10.5 23.1 163.70 215.33 261.18 219.45 201.13 283.00 238.27 288.30 279.06 276.86
11.0 24.2 170.45 218.98 270.71 227.33 209.21 291.28 247.63 302.02 288.28 287.66
11.5 25.3 176.96 227.38 281.42 236.05 217.27 302.14 256.90 313.50 299.05 295.43
12.0 26.4 183.46 235.76 292.12 244.74 225.34 313.04 266.18 324.96 309.78 303.22
12.5 27.5 190.18 244.21 302.96 253.57 233.46 324.02 275.85 336.54 320.68 314.40
13.0 28.6 196.91 252.66 313.78 262.40 241.61 335.00 285.51 348.11 331.56 325.58
13.5 29.7 203.47 261.03 324.43 271.13 249.62 345.95 295.10 357.97 342.40 338.61
14.0 30.8 210.06 269.38 335.08 279.85 257.65 356.91 304.67 367.84 353.26 351.67
14.5 31.9 216.62 272.49 343.82 288.59 265.35 365.81 314.36 381.44 364.04 363.29
15.0 33.0 223.20 275.58 352.52 297.30 273.09 374.68 324.06 395.06 374.84 374.98
15.5 34.1 229.99 282.22 358.51 302.46 279.44 380.22 330.51 404.65 383.02 380.37
16.0 35.2 236.81 288.33 364.53 310.60 285.78 385.70 336.93 414.22 391.23 385.73
16.5 36.3 243.26 295.91 373.73 319.08 293.41 394.69 346.20 424.44 401.73 396.05
17.0 37.4 249.74 303.45 382.92 327.56 301.05 403.67 355.45 434.66 412.22 406.40
17.5 38.5 255.29 310.99 392.56 336.26 308.20 414.09 364.70 443.48 416.53 411.86
18.0 39.6 260.89 318.52 402.20 344.97 315.32 424.52 373.96 452.27 420.77 417.34
18.5 40.7 267.33 326.00 411.02 353.35 322.92 434.61 383.41 461.60 429.79 424.65
19.0 41.8 273.79 333.51 419.85 361.67 330.53 444.72 392.86 470.92 438.81 431.98
19.5 42.9 280.15 340.49 427.10 369.99 337.90 452.70 402.43 479.38 446.99 439.86
20.0 44.0 286.52 343.29 434.32 378.33 345.28 460.69 411.97 487.83 455.18 447.73
20.5 45.1 293.34 344.99 437.07 384.74 350.70 463.95 417.97 495.88 461.49 455.21
21.0 46.2 300.17 350.12 441.03 391.17 356.16 467.21 423.95 503.94 467.77 462.66
21.5 47.3 306.54 356.87 447.77 399.59 363.31 476.09 433.28 513.91 477.42 471.99
22.0 48.4 312.97 363.62 455.76 408.01 370.49 484.98 442.57 523.83 487.05 481.33
22.5 49.5 319.57 370.38 463.80 416.46 377.76 493.44 451.95 534.84 496.87 491.01
23.0 50.6 326.20 377.16 471.85 424.88 385.02 501.86 461.34 545.84 506.74 500.71
23.5 51.7 332.40 383.95 479.43 432.98 392.15 511.16 470.16 556.07 516.11 509.72
24.0 52.8 338.64 390.72 487.01 441.09 399.33 520.44 479.00 566.31 525.46 518.74
24.5 53.9 345.57 398.49 497.39 449.89 407.29 530.58 489.32 576.06 535.73 528.56
25.0 55.0 352.49 406.26 507.81 458.65 415.23 540.75 499.66 585.78 546.04 538.40
25.5 56.1 358.99 411.93 512.07 464.37 420.89 544.21 507.37 588.26 546.27 540.77
26.0 57.2 365.48 417.61 516.35 470.06 426.53 547.67 515.12 590.70 546.51 543.17
26.5 58.3 372.10 424.83 525.35 478.38 434.04 556.99 524.13 598.77 555.81 551.13
27.0 59.4 378.71 432.03 534.30 486.67 441.57 566.30 533.13 606.87 565.10 559.10
27.5 60.5 385.28 439.02 542.46 495.14 448.90 575.82 542.17 616.78 574.62 567.51
28.0 61.6 391.86 446.00 550.61 503.61 456.23 585.34 551.25 626.71 584.11 575.89
28.5 62.7 398.12 452.46 557.87 511.77 463.11 594.61 560.30 633.42 587.02 582.21
29.0 63.8 404.41 458.87 565.12 519.91 469.99 603.86 569.36 640.15 589.94 588.51
29.5 64.9 410.73 465.32 572.65 528.00 476.84 612.65 578.49 648.48 597.48 596.18
30.0 66.0 417.05 471.76 580.17 536.10 483.68 621.45 587.62 656.80 604.99 603.81
30.1 66.1 6.48 6.55 7.24 7.75 6.85 8.67 8.81 9.54 8.57 9.16