(kg) (lb) A1 A2 A3 A4 A5 A6 B1 B2 B3 B4 B5 C1 C2 C3 C4 C5 D1 D2 D3 D4 D5 D6 D7
0.75 1.7 9.67 9.78 9.70 9.76 10.39 10.75 11.34 11.31 11.72 11.66 11.73 11.74 11.87 11.53 11.94 11.74 13.05 13.01 13.73 13.34 13.76 13.30 13.38
1.0 2.2 10.33 10.58 10.36 10.44 10.91 11.54 11.91 11.90 12.24 12.21 12.43 12.31 12.73 11.91 12.57 12.24 14.32 14.27 15.05 14.64 15.24 14.70 15.00
1.5 3.3 11.07 11.37 11.09 11.18 11.44 12.35 12.71 12.69 13.16 13.12 13.35 13.16 13.79 12.72 13.47 13.11 15.23 15.17 16.02 15.50 16.23 15.63 15.99
2.0 4.4 11.20 11.65 11.22 11.29 11.66 12.57 13.26 13.23 13.72 13.65 13.87 13.69 14.27 13.27 14.03 13.58 15.88 15.81 16.70 16.27 17.02 16.30 16.71
2.5 5.5 11.44 12.16 11.46 11.54 12.26 13.06 13.76 13.74 14.20 14.15 14.38 14.18 14.83 13.75 14.52 14.07 16.71 16.64 17.51 16.93 17.68 17.12 17.52
3.0 6.6 11.87 12.59 11.89 11.96 12.74 13.49 14.24 14.22 14.67 14.63 14.87 14.67 15.38 14.22 15.02 14.54 17.31 17.23 18.13 17.53 18.32 17.74 18.15
3.5 7.7 12.30 13.02 12.31 12.40 13.16 13.91 14.73 14.71 15.16 15.11 15.36 15.15 15.91 14.69 15.51 15.01 17.90 17.80 18.84 18.13 18.95 18.34 18.76
4.0 8.8 12.69 13.46 12.72 12.83 13.58 14.34 15.22 15.19 15.66 15.59 15.84 15.66 16.45 15.17 16.02 15.49 18.46 18.39 19.46 18.73 19.57 18.94 19.38
4.5 9.9 13.12 13.87 13.15 13.25 13.99 14.75 15.70 15.68 16.14 16.07 16.34 16.16 16.99 15.63 16.50 15.97 19.04 18.97 20.08 19.32 20.21 19.54 20.00
5.0 11.0 13.54 14.31 13.56 13.66 14.40 15.19 16.18 16.15 16.62 16.56 16.82 16.67 17.51 16.11 17.00 16.44 19.62 19.54 20.71 19.92 20.82 20.12 20.62
5.5 12.1 13.96 14.72 13.98 14.08 14.81 15.59 16.57 16.54 17.00 16.93 17.20 17.15 18.02 16.55 17.47 16.91 20.18 20.09 21.31 20.49 21.41 20.71 21.21
6.0 13.2 14.37 15.15 14.39 14.50 15.20 15.99 17.02 17.00 17.45 17.40 17.67 17.62 18.50 17.01 17.96 17.35 20.73 20.66 21.92 21.06 22.02 21.28 21.81
6.5 14.3 14.79 15.56 14.80 14.91 15.62 16.40 17.49 17.47 17.92 17.86 18.13 18.10 19.01 17.47 18.43 17.82 21.28 21.20 22.52 21.64 22.63 21.84 22.41
7.0 15.4 15.19 15.97 15.22 15.33 16.03 16.80 17.94 17.92 18.38 18.32 18.60 18.57 19.50 17.90 18.90 18.25 21.83 21.75 23.12 22.21 23.22 22.43 23.01
7.5 16.5 15.60 16.39 15.62 15.74 16.43 17.21 18.40 18.38 18.83 18.78 19.07 19.04 20.00 18.36 19.36 18.71 22.36 22.29 23.70 22.77 23.80 22.99 23.59
8.0 17.6 16.00 16.81 16.04 16.15 16.83 17.60 18.86 18.83 19.29 19.22 19.53 19.51 20.48 18.79 19.83 19.15 22.91 22.85 24.29 23.34 24.40 23.55 24.19
8.5 18.7 16.41 17.24 16.43 16.55 17.24 18.01 19.32 19.29 19.75 19.68 19.99 19.96 20.96 19.24 20.29 19.60 23.46 23.39 24.88 23.91 24.99 24.11 24.76
9.0 19.8 16.80 17.62 16.82 16.96 17.63 18.40 19.76 19.73 20.20 20.11 20.43 20.43 21.47 19.67 20.74 20.05 23.99 23.92 25.47 24.46 25.56 24.67 25.34
9.5 20.9 17.21 18.00 17.24 17.37 18.01 18.79 20.21 20.18 20.63 20.56 20.89 20.89 21.95 20.11 21.23 20.49 24.54 24.46 26.06 25.01 26.15 25.22 26.09
10.0 22.0 17.61 18.40 17.64 17.75 18.41 19.19 20.65 20.61 21.09 21.01 21.33 21.34 22.44 20.55 21.68 20.93 25.07 24.98 26.64 25.57 26.72 25.78 26.66
10.5 23.1 18.00 18.80 18.02 18.16 18.81 19.57 21.09 21.06 21.54 21.46 21.78 21.81 22.91 20.99 22.13 21.35 25.60 25.51 27.20 26.11 27.29 26.33 27.22
11.0 24.2 18.37 19.20 18.40 18.54 19.21 19.95 21.54 21.51 21.98 21.90 22.23 22.26 23.38 21.42 22.58 21.80 26.10 26.02 27.77 26.64 27.84 26.87 27.77
11.5 25.3 18.74 19.61 18.77 18.92 19.62 20.35 21.98 21.95 22.43 22.33 22.68 22.72 23.87 21.84 23.05 22.23 26.61 26.54 28.33 27.18 28.41 27.40 28.34
12.0 26.4 19.12 20.00 19.16 19.31 20.01 20.74 22.43 22.39 22.86 22.75 23.12 23.17 24.34 22.28 23.50 22.67 27.13 27.06 28.88 27.71 28.97 27.92 28.88
12.5 27.5 19.50 20.38 19.56 19.68 20.41 21.11 22.86 22.82 23.29 23.19 23.55 23.62 24.81 22.71 23.94 23.10 27.65 27.56 29.44 28.26 29.52 28.44 29.45
13.0 28.6 19.88 20.76 19.91 20.07 20.81 21.49 23.29 23.26 23.73 23.63 23.99 24.05 25.29 23.14 24.38 23.51 28.15 28.07 30.00 28.78 30.08 28.99 29.98
13.5 29.7 20.25 21.15 20.30 20.44 21.20 21.88 23.72 23.69 24.17 24.05 24.44 24.49 25.75 23.55 24.82 23.96 28.66 28.56 30.55 29.29 30.63 29.52 30.55
14.0 30.8 20.63 21.53 20.66 20.82 21.59 22.26 24.16 24.12 24.59 24.49 24.88 24.94 26.20 23.97 25.27 24.37 29.15 29.08 31.10 29.81 31.17 30.04 31.07
14.5 31.9 21.00 21.90 21.03 21.19 21.98 22.62 24.57 24.53 25.01 24.91 25.30 25.39 26.66 24.39 25.71 24.80 29.67 29.57 31.64 30.33 31.73 30.55 31.61
15.0 33.0 21.35 22.28 21.40 21.56 22.37 23.00 25.00 24.96 25.43 25.35 25.72 25.82 27.13 24.81 26.15 25.21 30.16 30.08 32.18 30.84 32.26 31.07 32.15
15.5 34.1 21.74 22.65 21.77 21.93 22.75 23.39 25.42 25.39 25.87 25.76 26.15 26.25 27.58 25.21 26.58 25.63 30.65 30.57 32.72 31.37 32.81 31.60 32.69
16.0 35.2 22.62 23.62 22.66 22.83 23.74 24.36 26.53 26.49 26.98 26.86 27.28 27.37 28.65 26.29 27.58 26.72 31.90 31.81 34.12 32.71 34.06 32.94 33.94
16.5 36.3 23.00 24.00 23.04 23.20 24.12 24.73 26.95 26.90 27.39 27.29 27.72 27.83 29.11 26.72 28.03 27.14 32.41 32.32 34.66 33.23 34.60 33.47 34.47
17.0 37.4 23.37 24.38 23.42 23.58 24.51 25.11 27.38 27.33 27.83 27.72 28.14 28.26 29.58 27.12 28.45 27.57 32.91 32.82 35.21 33.75 35.16 33.98 35.02
17.5 38.5 23.74 24.75 23.78 23.95 24.90 25.49 27.80 27.77 28.25 28.13 28.57 28.71 30.03 27.55 28.89 27.98 33.41 33.32 35.76 34.26 35.68 34.51 35.55
18.0 39.6 24.10 25.13 24.13 24.32 25.30 25.85 28.23 28.18 28.68 28.57 29.01 29.14 30.49 27.96 29.34 28.41 33.91 33.81 36.30 34.79 36.23 35.01 36.08
18.5 40.7 24.45 25.50 24.51 24.68 25.67 26.23 28.65 28.60 29.11 28.98 29.42 29.58 30.94 28.38 29.77 28.82 34.41 34.30 36.85 35.29 36.76 35.52 36.62
19.0 41.8 24.84 25.86 24.86 25.05 26.05 26.60 29.07 29.03 29.52 29.39 29.85 30.00 31.38 28.79 30.19 29.23 34.88 34.79 37.35 35.80 37.30 36.04 37.14
19.5 42.9 25.18 26.24 25.24 25.42 26.44 26.98 29.49 29.43 29.95 29.82 30.28 30.44 31.84 29.18 30.62 29.64 35.38 35.29 37.90 36.32 37.83 36.55 37.66
20.0 44.0 25.54 26.60 25.59 25.78 26.82 27.33 29.89 29.85 30.35 30.24 30.70 30.86 32.29 29.61 31.04 30.05 35.87 35.76 38.43 36.82 38.36 37.04 38.19
20.5 45.1 25.89 26.92 25.94 26.12 27.12 27.64 30.19 30.12 30.64 30.52 30.99 31.21 32.66 29.88 31.34 30.34 36.27 36.19 38.87 37.24 38.81 37.48 38.64
21.0 46.2 26.25 27.24 26.28 26.47 27.41 27.96 30.46 30.41 30.91 30.80 31.27 31.57 33.03 30.13 31.63 30.62 36.67 36.58 39.32 37.66 39.24 37.90 39.08
21.5 47.3 26.57 27.54 26.62 26.82 27.68 28.27 30.73 30.69 31.20 31.06 31.54 31.91 33.40 30.41 31.91 30.90 37.09 36.99 39.75 38.08 39.67 38.33 39.49
22.0 48.4 26.91 27.99 26.97 27.16 27.98 28.57 31.00 30.97 31.47 31.35 31.84 32.27 33.76 30.69 32.19 31.19 37.48 37.39 40.20 38.49 40.11 38.73 39.92
22.5 49.5 28.08 29.15 28.12 28.33 29.10 29.73 32.14 32.09 32.61 32.49 32.99 33.49 35.02 31.80 33.36 32.35 38.81 38.70 41.58 39.86 41.50 40.09 41.31
23.0 50.6 28.43 29.46 28.47 28.68 29.39 30.03 32.41 32.37 32.88 32.76 33.27 33.83 35.37 32.07 33.63 32.63 39.20 39.11 42.02 40.26 41.93 40.51 41.74
23.5 51.7 28.76 29.76 28.81 29.01 29.67 30.34 32.69 32.64 33.17 33.03 33.53 34.20 35.74 32.35 33.93 32.89 39.60 39.50 42.46 40.68 42.36 40.93 42.16
24.0 52.8 29.08 30.08 29.15 29.36 29.96 30.65 32.97 32.91 33.45 33.31 33.82 34.53 36.10 32.60 34.21 33.18 40.00 39.90 42.88 41.09 42.79 41.35 42.58
24.5 53.9 29.43 30.39 29.49 29.69 30.23 30.96 33.23 33.18 33.72 33.59 34.11 34.87 36.47 32.87 34.48 33.46 40.39 40.30 43.32 41.50 43.22 41.74 43.02
25.0 55.0 29.76 30.70 29.80 30.02 30.51 31.26 33.49 33.45 33.98 33.87 34.39 35.21 36.81 33.12 34.75 33.73 40.80 40.68 43.74 41.90 43.63 42.16 43.44
25.5 56.1 30.10 30.99 30.15 30.37 30.80 31.57 33.77 33.71 34.25 34.12 34.66 35.53 37.17 33.40 35.04 34.01 41.17 41.08 44.17 42.31 44.06 42.56 43.85
26.0 57.2 30.42 31.30 30.48 30.70 31.06 31.86 34.03 33.98 34.52 34.40 34.93 35.89 37.54 33.65 35.32 34.27 41.57 41.46 44.58 42.71 44.49 42.97 44.27
26.5 58.3 30.74 31.61 30.80 31.02 31.34 32.17 34.29 34.24 34.79 34.66 35.20 36.23 37.86 33.91 35.58 34.54 41.96 41.85 45.02 43.11 44.91 43.36 44.68
27.0 59.4 31.07 31.90 31.14 31.36 31.62 32.45 34.54 34.50 35.06 34.91 35.47 36.56 38.22 34.18 35.87 34.82 42.35 42.23 45.43 43.51 45.32 43.77 45.11
27.5 60.5 31.40 32.21 31.45 31.67 31.90 32.75 34.82 34.75 35.32 35.17 35.73 36.89 38.56 34.42 36.12 35.09 42.73 42.62 45.84 43.91 45.74 44.17 45.51
28.0 61.6 31.72 32.49 31.78 32.00 32.17 33.04 35.07 35.02 35.58 35.44 36.02 37.21 38.91 34.67 36.40 35.35 43.10 42.99 46.25 44.31 46.14 44.56 45.92
28.5 62.7 32.05 32.79 32.08 32.34 32.44 33.33 35.33 35.29 35.84 35.70 36.27 37.55 39.26 34.91 36.68 35.62 43.47 43.38 46.66 44.70 46.54 44.96 46.32
29.0 63.8 32.36 33.09 32.42 32.65 32.71 33.63 35.58 35.53 36.10 35.95 36.53 37.87 39.61 35.16 36.94 35.88 43.84 43.74 47.09 45.10 46.97 45.35 46.72
29.5 64.9 32.68 33.37 32.73 32.98 32.97 33.92 35.84 35.79 36.36 36.21 36.80 38.19 39.92 35.43 37.19 36.13 44.23 44.13 47.48 45.47 47.37 45.74 47.12
30.0 66.0 32.99 33.66 33.04 33.29 33.23 34.21 36.09 36.05 36.60 36.48 37.06 38.51 40.27 35.67 37.45 36.39 44.59 44.50 47.88 45.87 47.77 46.11 47.54