(kg) (lb) 101 102 103 104 105 106 107 108 109 110
0.5 1.7 57.03 67.69 86.04 72.45 73.93 81.67 78.70 87.53 76.33 86.53
1.0 2.2 59.65 75.76 92.65 81.15 82.28 89.80 86.04 94.06 84.39 90.98
1.5 3.3 62.56 81.51 100.66 87.24 88.73 97.13 94.76 104.88 90.60 100.42
2.0 4.4 68.42 88.43 110.33 94.69 96.35 105.84 104.58 117.39 98.22 111.56
2.5 5.5 74.90 98.90 121.99 106.12 107.56 118.23 116.01 132.52 109.98 125.45
3.0 6.6 82.28 109.25 135.53 117.05 118.47 130.58 129.39 147.35 120.90 139.95
3.5 7.7 90.37 123.13 151.79 132.52 131.26 147.30 143.14 163.34 136.32 155.30
4.0 8.8 97.77 133.13 165.09 142.81 141.72 159.12 155.70 178.41 147.01 169.44
4.5 9.9 106.53 144.51 179.21 154.92 154.17 172.60 168.18 196.02 159.29 186.02
5.0 11.0 115.45 153.22 193.70 164.18 163.80 184.25 183.64 213.67 168.85 203.11
5.5 12.1 122.21 163.10 208.96 174.71 175.01 196.02 196.10 225.61 178.18 215.60
6.0 13.2 128.93 171.30 222.21 183.17 183.58 206.95 207.88 237.77 187.17 227.32
6.5 14.3 137.00 178.76 235.00 190.82 191.35 217.02 217.94 249.49 195.19 238.54
7.0 15.4 143.94 187.68 248.71 200.25 200.81 228.39 228.46 261.21 204.80 250.24
7.5 16.5 151.05 196.38 260.69 209.79 210.41 239.54 238.98 272.29 214.52 261.16
8.0 17.6 157.58 201.90 271.84 215.48 216.27 247.39 249.16 282.53 220.04 271.31
8.5 18.7 164.63 210.19 283.67 224.63 225.45 258.08 259.74 294.47 229.53 282.96
9.0 19.8 171.13 217.19 295.11 231.64 232.62 267.25 269.51 305.40 236.99 293.67
9.5 20.9 178.18 224.19 306.48 239.15 240.22 276.56 279.81 318.47 244.95 306.38
10.0 22.0 185.28 232.49 317.00 247.90 249.30 286.98 290.56 331.44 253.77 319.53
10.5 23.1 197.29 237.04 328.48 252.06 256.36 295.29 300.55 343.95 264.23 331.86
11.0 24.2 204.35 245.33 339.80 260.80 265.49 305.34 310.58 356.69 273.62 344.40
11.5 25.3 210.59 249.28 349.02 264.63 269.40 311.31 318.54 367.72 277.64 354.89
12.0 26.4 218.56 254.60 359.37 269.86 274.90 318.93 327.81 378.60 283.39 365.87
12.5 27.5 225.49 261.50 370.29 277.35 282.49 328.13 337.70 389.46 291.24 376.69
13.0 28.6 232.84 269.68 381.95 286.12 291.80 338.72 348.11 401.41 300.12 388.51
13.5 29.7 239.82 276.56 392.58 293.39 299.09 347.84 357.78 414.14 307.73 400.61
14.0 30.8 246.66 283.39 403.10 300.50 306.50 356.69 367.89 426.54 315.34 412.43
14.5 31.9 254.22 291.64 413.97 309.50 315.74 367.22 379.10 441.14 324.73 426.19
15.0 33.0 261.72 299.72 423.45 318.36 324.76 377.84 390.70 454.18 334.16 437.80
15.5 34.1 269.92 307.96 430.80 326.95 333.90 387.63 401.06 466.93 344.07 449.67
16.0 35.2 276.86 316.21 441.31 335.70 343.11 397.64 411.24 479.13 353.70 461.55
16.5 36.3 284.36 325.71 452.12 346.46 354.00 409.37 422.17 492.85 364.95 473.98
17.0 37.4 291.40 334.00 462.81 355.20 363.03 419.49 432.29 503.48 374.27 485.07
17.5 38.5 298.06 340.60 473.28 362.72 370.73 428.48 441.82 514.68 382.12 496.28
18.0 39.6 303.63 344.58 482.43 366.49 374.63 434.39 449.80 524.40 386.16 505.71
18.5 40.7 310.18 349.94 491.20 371.99 380.32 441.82 458.89 535.05 392.07 515.46
19.0 41.8 316.04 355.15 500.47 376.89 385.42 448.60 467.95 545.98 397.71 525.17
19.5 42.9 324.39 360.50 509.91 382.52 391.11 456.00 477.20 556.71 403.44 534.97
20.0 44.0 331.28 368.65 520.43 391.05 400.18 465.78 487.90 568.48 412.38 545.58
20.5 45.1 344.35 373.98 534.36 395.93 405.53 472.55 496.82 578.39 417.77 554.33
21.0 46.2 351.58 380.69 544.44 402.87 412.82 480.73 505.99 587.66 425.29 563.70
21.5 47.3 358.02 385.98 554.20 408.34 418.51 487.97 515.14 598.01 431.21 573.07
22.0 48.4 365.23 389.91 563.02 412.03 422.30 493.48 522.92 605.97 435.01 581.15
22.5 49.5 371.32 393.89 572.46 416.08 426.43 499.55 530.39 615.41 439.22 589.73
23.0 50.6 377.51 397.82 581.68 419.93 430.68 505.53 537.89 624.44 443.30 598.70
23.5 51.7 383.54 401.74 590.78 423.81 434.58 511.28 545.57 633.14 447.29 607.24
24.0 52.8 388.90 405.73 599.03 427.10 438.10 516.50 552.91 641.10 450.78 614.66
24.5 53.9 396.05 412.53 609.49 434.71 446.02 525.77 562.74 652.15 458.89 624.59
25.0 55.0 402.65 419.31 619.78 441.96 453.66 534.53 572.63 662.27 466.68 633.84
25.5 56.1 418.12 424.66 633.77 446.90 458.94 540.97 580.20 671.14 472.03 642.32
26.0 57.2 424.71 431.48 643.78 453.89 466.42 549.21 588.96 680.81 479.54 651.83
26.5 58.3 431.31 436.77 653.22 459.41 472.22 556.26 596.81 689.62 485.35 660.60
27.0 59.4 437.28 440.69 662.94 463.11 476.05 561.54 603.91 697.69 489.15 669.02
27.5 60.5 443.61 446.10 671.36 468.89 482.03 568.71 611.70 706.74 495.39 677.38
28.0 61.6 450.08 451.45 680.75 474.42 488.02 575.92 619.95 716.41 501.72 686.47
28.5 62.7 455.93 455.21 689.16 478.10 491.75 581.40 627.51 725.17 505.58 694.71
29.0 63.8 461.57 457.70 697.13 480.11 494.00 585.61 634.46 732.85 507.64 702.41
29.5 64.9 467.65 461.57 705.72 483.97 497.88 591.06 642.07 742.11 511.55 710.72
30.0 66.0 473.74 466.86 715.10 489.31 503.56 597.71 650.33 751.11 516.96 719.42
30.1 66.1 7.08 4.73 9.50 4.72 4.91 6.29 7.73 8.84 5.01 8.69