(kg) (lb) 401 402 403 404 405 406 407 408 409 410
0.5 1.7 38.58 46.35 53.13 49.44 51.17 56.11 53.95 58.71 56.28 54.62
1.0 2.2 42.47 49.00 56.28 52.41 54.07 58.27 56.52 61.54 57.22 57.97
1.5 3.3 46.23 51.59 59.56 55.49 57.16 63.20 59.06 65.23 60.49 61.36
2.0 4.4 49.27 54.69 63.64 59.26 60.92 67.28 63.82 69.92 64.32 65.42
2.5 5.5 53.46 59.38 69.01 64.32 66.05 73.21 69.33 75.79 70.00 71.04
3.0 6.6 58.57 65.18 75.48 70.60 72.09 80.23 75.79 83.26 76.54 77.84
3.5 7.7 65.80 72.89 84.73 79.19 80.42 90.06 84.67 92.95 85.49 87.40
4.0 8.8 74.44 82.46 95.85 89.62 91.17 101.65 95.67 105.06 96.72 98.76
4.5 9.9 83.26 92.27 107.27 100.42 102.03 113.87 107.16 117.72 108.25 110.49
5.0 11.0 90.42 100.37 117.39 109.43 111.29 124.81 116.60 128.27 118.21 120.78
5.5 12.1 93.38 103.24 120.72 113.13 114.43 129.61 121.72 131.90 123.00 124.07
6.0 13.2 96.34 106.22 124.07 116.71 117.72 131.71 123.99 135.48 127.78 127.14
6.5 14.3 100.42 110.24 129.01 121.22 122.27 136.83 129.73 140.55 132.46 132.46
7.0 15.4 104.57 114.25 134.00 125.60 126.84 141.90 132.88 145.48 137.14 137.64
7.5 16.5 107.45 117.88 138.64 129.86 131.03 147.76 138.39 151.29 142.45 143.62
8.0 17.6 110.42 121.41 143.33 134.19 135.10 153.51 141.23 156.97 147.82 149.61
8.5 18.7 112.88 124.19 146.77 137.47 138.25 157.58 146.03 161.22 151.73 153.61
9.0 19.8 115.29 126.84 150.17 140.61 141.34 161.59 147.95 165.47 155.60 157.70
9.5 20.9 118.55 130.42 154.37 144.37 145.41 166.54 153.19 169.36 159.48 161.40
10.0 22.0 121.72 133.94 158.55 148.07 149.42 171.53 155.60 173.31 163.38 165.05
10.5 23.1 126.84 137.75 162.45 152.13 153.61 175.47 159.24 176.90 167.33 168.68
11.0 24.2 132.04 141.66 166.33 156.15 157.81 179.37 162.88 180.60 171.22 172.51
11.5 25.3 135.35 145.11 170.72 160.04 161.90 183.92 166.89 185.10 175.47 176.90
12.0 26.4 138.69 148.68 175.04 163.93 165.90 188.37 170.85 189.55 179.72 181.21
12.5 27.5 142.09 152.21 179.49 168.00 170.10 192.95 175.10 194.19 183.92 185.66
13.0 28.6 145.54 155.71 183.99 172.02 174.24 197.51 179.37 198.87 188.07 190.16
13.5 29.7 148.87 159.24 188.26 175.91 178.13 201.95 183.48 203.49 192.32 194.48
14.0 30.8 152.13 162.75 192.37 179.66 182.08 206.46 187.68 208.01 196.52 198.81
14.5 31.9 155.60 166.40 196.71 183.63 186.15 211.21 191.88 212.46 200.90 203.00
15.0 33.0 158.89 170.03 201.02 187.63 190.23 215.83 195.96 216.89 205.21 207.27
15.5 34.1 161.77 173.01 204.60 191.03 193.69 219.53 199.61 220.23 208.93 210.84
16.0 35.2 164.74 176.08 208.18 194.19 197.21 223.19 203.25 223.55 212.62 214.43
16.5 36.3 168.00 179.55 212.37 198.05 201.15 227.68 207.33 227.93 216.89 218.63
17.0 37.4 171.27 183.00 216.58 201.90 205.04 232.07 211.40 232.25 221.09 222.82
17.5 38.5 174.73 186.59 220.59 205.84 209.06 236.56 215.34 236.82 225.34 227.19
18.0 39.6 178.26 190.11 224.60 209.79 213.12 241.15 219.23 241.39 229.66 231.58
18.5 40.7 181.59 193.62 229.16 213.62 217.15 245.52 223.19 246.09 234.04 235.65
19.0 41.8 184.85 197.21 233.69 217.49 221.16 249.90 227.19 250.78 238.31 239.73
19.5 42.9 188.26 200.65 237.56 221.33 225.17 254.31 231.46 254.80 242.37 243.86
20.0 44.0 191.59 204.16 241.39 225.09 229.16 258.56 235.65 258.91 246.45 247.92
20.5 45.1 194.30 207.13 245.10 228.17 232.37 262.07 238.49 261.82 250.03 251.95
21.0 46.2 197.01 210.10 248.74 231.13 235.41 265.46 241.20 264.60 253.61 255.90
21.5 47.3 200.47 213.56 253.05 235.16 239.90 269.78 245.52 269.04 257.94 260.22
22.0 48.4 203.93 217.07 257.39 239.05 244.42 274.10 249.78 273.54 262.24 264.54
22.5 49.5 207.19 220.65 261.46 242.98 248.60 278.66 253.79 278.31 266.53 268.97
23.0 50.6 210.66 224.11 265.35 246.89 252.81 283.11 257.69 282.93 270.83 273.37
23.5 51.7 213.80 227.56 269.35 250.54 256.57 287.31 261.75 287.18 274.78 277.49
24.0 52.8 217.02 231.03 273.30 254.31 260.59 291.38 265.71 291.38 278.74 281.50
24.5 53.9 220.03 234.55 277.63 258.23 264.66 295.96 270.34 296.21 283.11 285.82
25.0 55.0 223.19 238.00 281.99 262.24 268.79 300.46 274.92 301.01 287.43 290.09
25.5 56.1 225.04 240.91 285.33 265.15 271.77 303.73 278.17 304.47 290.70 293.42
26.0 57.2 226.83 243.81 288.66 268.19 274.83 306.94 281.40 307.93 293.85 296.81
26.5 58.3 230.10 247.32 292.92 271.94 278.80 311.26 285.40 312.19 297.98 301.14
27.0 59.4 233.37 250.72 297.18 275.71 282.67 315.52 289.24 316.39 302.07 305.35
27.5 60.5 236.65 254.17 301.33 279.60 286.63 319.90 293.35 320.89 306.52 309.53
28.0 61.6 239.85 257.69 305.35 283.55 290.64 324.29 297.38 325.40 310.82 313.73
28.5 62.7 243.24 261.20 309.34 287.43 294.72 328.66 301.63 329.84 314.90 317.93
29.0 63.8 246.45 264.66 313.24 291.20 298.79 332.99 305.89 334.22 319.11 322.07
29.5 64.9 249.66 268.11 317.18 294.96 302.98 337.19 309.65 338.78 323.05 326.32
30.0 66.0 252.81 271.51 321.14 298.73 307.12 341.24 313.43 343.23 326.92 330.57
30.1 66.1 2.98 3.36 3.93 3.65 3.84 4.09 3.86 4.22 3.96 4.05
